Wavelength,Intensity
343.0,9.233703703703704
344.67499999999995,8.713333333333333
346.35,8.091111111111111
348.025,7.385555555555556
349.7,6.522592592592593
351.375,5.8170370370370375
353.04999999999995,5.152222222222222
354.725,5.024444444444445
356.4,4.633703703703704
358.075,4.420740740740741
359.75,4.45037037037037
361.42499999999995,4.263333333333334
363.1,4.617037037037037
364.775,4.6540740740740745
366.45,5.187407407407408
368.125,5.674444444444444
369.79999999999995,6.498518518518519
371.475,7.748518518518519
373.15,8.902222222222221
374.825,10.267037037037037
376.5,11.848518518518517
378.17499999999995,13.311481481481481
379.85,15.048518518518518
381.525,16.196666666666665
383.2,17.635555555555555
384.875,19.202222222222222
386.54999999999995,21.094814814814814
388.225,22.709629629629628
389.9,24.55962962962963
391.575,26.507777777777775
393.25,28.391111111111112
394.92499999999995,30.57814814814815
396.6,32.389259259259255
398.275,33.99666666666666
399.95,35.28740740740741
401.625,36.92074074074074
403.29999999999995,38.3837037037037
404.975,39.58555555555556
406.65,40.531851851851854
408.325,41.49666666666666
410.0,42.44481481481481
411.67499999999995,42.90037037037037
413.35,43.14666666666667
415.025,43.44111111111111
416.7,43.61148148148148
418.375,43.79481481481481
420.05,43.504074074074076
421.725,43.196666666666665
423.4,42.89666666666667
425.075,42.333703703703705
426.75,41.41518518518519
428.425,40.126296296296296
430.1,39.39111111111111
431.775,38.10592592592592
433.45,36.48185185185185
435.125,34.58185185185185
436.8,32.578148148148145
438.475,30.36888888888889
440.15,28.133703703703702
441.825,26.06148148148148
443.5,24.224444444444444
445.175,22.346666666666668
446.85,20.742962962962963
448.525,19.415185185185184
450.2,18.046666666666667
451.875,17.065185185185186
453.55,16.131851851851852
455.225,15.48185185185185
456.9,14.898518518518518
458.575,14.594814814814814
460.25,14.561481481481481
461.925,14.379999999999999
463.6,14.41148148148148
465.275,14.576296296296295
466.95,14.922592592592592
468.625,15.15962962962963
470.3,15.587407407407408
471.975,16.10962962962963
473.65,16.60222222222222
475.325,17.25037037037037
477.0,18.02259259259259
478.675,18.659629629629627
480.35,19.32074074074074
482.025,19.93925925925926
483.7,20.97259259259259
485.375,21.724444444444444
487.05,22.613333333333333
488.725,23.168888888888887
490.4,23.27074074074074
492.075,23.876296296296296
493.75,24.35037037037037
495.425,24.742962962962963
497.1,25.054074074074073
498.775,25.702222222222222
500.45,26.292962962962964
502.125,26.874444444444443
503.8,27.807777777777776
505.475,28.872592592592593
507.15,29.496666666666666
508.825,30.48185185185185
510.5,31.28185185185185
512.175,32.04851851851852
513.85,32.68555555555555
515.525,33.25037037037037
517.2,33.99296296296296
518.875,34.47814814814815
520.55,34.93185185185185
522.225,35.148518518518514
523.9,35.60777777777778
525.575,35.84481481481481
527.25,36.16888888888889
528.925,36.31703703703704
530.6,36.41703703703703
532.275,36.65962962962963
533.95,36.574444444444445
535.625,36.644814814814815
537.3,36.79111111111111
538.975,36.68925925925926
540.65,36.337407407407404
542.325,36.28740740740741
544.0,36.18925925925926
545.675,35.94296296296296
547.35,35.635555555555555
549.025,35.578148148148145
550.7,35.2337037037037
552.375,35.139259259259255
554.05,34.75222222222222
555.725,34.44481481481481
557.4,34.11888888888889
559.075,33.757777777777775
560.75,33.52074074074074
562.425,33.27814814814815
564.1,32.93
565.775,32.66518518518519
567.45,32.139259259259255
569.125,31.70962962962963
570.8,31.244814814814813
572.475,30.84111111111111
574.15,30.335555555555555
575.825,29.891111111111112
577.5,29.305925925925926
579.175,28.752222222222223
580.85,28.196666666666665
582.525,28.513333333333332
584.2,29.62074074074074
585.875,31.776296296296294
587.55,34.17074074074074
589.225,36.37074074074074
590.9,38.26888888888889
592.575,39.81333333333333
594.25,41.18555555555555
595.925,42.26888888888889
597.6,43.096666666666664
599.275,43.48185185185185
600.95,43.70777777777778
602.625,43.91148148148148
604.3,44.00962962962963
605.975,43.84481481481481
607.65,43.555925925925926
609.325,43.38
611.0,42.4837037037037
612.675,42.00962962962963
614.35,41.43555555555555
616.025,40.47259259259259
617.7,39.678148148148146
619.375,38.91518518518519
621.05,37.867037037037036
622.725,36.715185185185184
624.4,35.50222222222222
626.075,34.20962962962963
627.75,33.25222222222222
629.425,32.446666666666665
631.1,31.55222222222222
632.775,30.654074074074074
634.45,29.737407407407407
636.125,28.867037037037036
637.8,28.094814814814814
639.475,27.355925925925924
641.15,26.792962962962964
642.825,26.287407407407407
644.5,25.58
646.175,24.767037037037035
647.85,24.085555555555555
649.525,23.533703703703704
651.2,22.935555555555556
652.875,22.43185185185185
654.55,21.928148148148146
656.225,21.494814814814813
657.9,20.926296296296297
659.575,20.246666666666666
661.25,19.672592592592594
662.925,19.128148148148146
664.6,18.378148148148146
666.275,17.86888888888889
667.95,17.076296296296295
669.625,16.554074074074073
671.3,15.668888888888887
672.975,14.781851851851851
674.65,14.076296296296295
676.325,13.302222222222222
678.0,12.40037037037037
679.675,11.45037037037037
681.35,10.494814814814815
683.025,9.698518518518517
684.7,8.696666666666665
686.375,7.765185185185186
688.05,6.905925925925926
689.725,5.874444444444444
691.4,5.072592592592593
693.075,4.3133333333333335
694.75,3.6985185185185188
696.425,3.168888888888889
698.1,2.7392592592592595
699.775,2.396666666666667
701.45,1.9318518518518522
703.125,1.5911111111111111
704.8,1.3374074074074076
706.475,1.1262962962962964
708.15,0.8929629629629631
709.825,0.805925925925926
711.5,0.6781481481481483
713.175,0.5855555555555555
714.85,0.3466666666666668
716.525,0.28
718.2,0.16888888888888887
719.875,0.2818518518518519
721.55,0.20407407407407407
723.225,0.1670370370370371
724.9,0.0762962962962963
726.575,0.08740740740740738
